t 	 	 x(t) 	 	 y(t) 	 	 vx(t) 	 	 vy(t) 	 	 Ek 	 	 Ep 	 	 Etot 
1.131371e+00	3.959966e+00	3.986616e-01	-7.082863e-02	3.499971e-01	6.250000e-02	-2.500000e-01	 -1.875000e-01
2.245925e+00	3.841851e+00	7.834769e-01	-1.412938e-01	3.392929e-01	6.375734e-02	-2.512574e-01	 -1.875000e-01
3.312735e+00	3.654601e+00	1.136715e+00	-2.100122e-01	3.216464e-01	6.754182e-02	-2.550418e-01	 -1.875000e-01
4.309072e+00	3.412718e+00	1.445841e+00	-2.758408e-01	2.975315e-01	7.378077e-02	-2.612808e-01	 -1.875000e-01
5.222586e+00	3.132493e+00	1.704584e+00	-3.379812e-01	2.675491e-01	8.230660e-02	-2.698065e-01	 -1.874999e-01
6.049903e+00	2.829014e+00	1.911948e+00	-3.959438e-01	2.323032e-01	9.290691e-02	-2.804068e-01	 -1.874999e-01
6.793707e+00	2.514690e+00	2.070420e+00	-4.494487e-01	1.923360e-01	1.053682e-01	-2.928680e-01	 -1.874998e-01
7.460004e+00	2.198981e+00	2.184338e+00	-4.983275e-01	1.481129e-01	1.194986e-01	-3.069984e-01	 -1.874998e-01
8.056206e+00	1.888727e+00	2.258759e+00	-5.424551e-01	1.000343e-01	1.351339e-01	-3.226336e-01	 -1.874997e-01
8.589990e+00	1.588669e+00	2.298792e+00	-5.817099e-01	4.845766e-02	1.521322e-01	-3.396318e-01	 -1.874996e-01
9.068698e+00	1.301947e+00	2.309242e+00	-6.159554e-01	-6.280779e-03	1.703673e-01	-3.578668e-01	 -1.874996e-01
9.499060e+00	1.030528e+00	2.294465e+00	-6.450346e-01	-6.384709e-02	1.897202e-01	-3.772198e-01	 -1.874995e-01
9.887106e+00	7.755213e-01	2.258311e+00	-6.687722e-01	-1.238943e-01	2.100731e-01	-3.975725e-01	 -1.874995e-01
1.023817e+01	5.374317e-01	2.204141e+00	-6.869807e-01	-1.860506e-01	2.313030e-01	-4.188024e-01	 -1.874994e-01
1.055693e+01	3.163351e-01	2.134857e+00	-6.994699e-01	-2.499111e-01	2.532787e-01	-4.407780e-01	 -1.874994e-01
1.084749e+01	1.120132e-01	2.052952e+00	-7.060568e-01	-3.150321e-01	2.758569e-01	-4.633562e-01	 -1.874994e-01
1.111341e+01	-7.594968e-02	1.960553e+00	-7.065770e-01	-3.809282e-01	2.988807e-01	-4.863801e-01	 -1.874993e-01
1.135783e+01	-2.480955e-01	1.859472e+00	-7.008959e-01	-4.470715e-01	3.221786e-01	-5.096779e-01	 -1.874993e-01
1.158349e+01	-4.050404e-01	1.751247e+00	-6.889204e-01	-5.128946e-01	3.455640e-01	-5.330633e-01	 -1.874993e-01
1.179277e+01	-5.474367e-01	1.637177e+00	-6.706098e-01	-5.777939e-01	3.688361e-01	-5.563354e-01	 -1.874993e-01
1.198779e+01	-6.759457e-01	1.518360e+00	-6.459855e-01	-6.411372e-01	3.917817e-01	-5.792809e-01	 -1.874993e-01
1.217040e+01	-7.912172e-01	1.395719e+00	-6.151399e-01	-7.022724e-01	4.141771e-01	-6.016763e-01	 -1.874993e-01
1.234225e+01	-8.938756e-01	1.270029e+00	-5.782438e-01	-7.605382e-01	4.357918e-01	-6.232911e-01	 -1.874992e-01
1.250481e+01	-9.845097e-01	1.141937e+00	-5.355506e-01	-8.152768e-01	4.563921e-01	-6.438913e-01	 -1.874992e-01
1.265938e+01	-1.063665e+00	1.011985e+00	-4.873993e-01	-8.658474e-01	4.757453e-01	-6.632445e-01	 -1.874992e-01
1.280714e+01	-1.131842e+00	8.806244e-01	-4.342143e-01	-9.116408e-01	4.936249e-01	-6.811241e-01	 -1.874992e-01
1.294916e+01	-1.189486e+00	7.482320e-01	-3.765018e-01	-9.520936e-01	5.098155e-01	-6.973147e-01	 -1.874992e-01
1.308641e+01	-1.236994e+00	6.151215e-01	-3.148441e-01	-9.867023e-01	5.241179e-01	-7.116171e-01	 -1.874991e-01
1.321980e+01	-1.274710e+00	4.815564e-01	-2.498909e-01	-1.015036e+00	5.363541e-01	-7.238533e-01	 -1.874991e-01
1.335015e+01	-1.302920e+00	3.477596e-01	-1.823479e-01	-1.036748e+00	5.463718e-01	-7.338709e-01	 -1.874991e-01
1.347826e+01	-1.321862e+00	2.139228e-01	-1.129634e-01	-1.051582e+00	5.540481e-01	-7.415472e-01	 -1.874991e-01
1.360487e+01	-1.331718e+00	8.021499e-02	-4.251373e-02	-1.059385e+00	5.592931e-01	-7.467922e-01	 -1.874991e-01
1.373070e+01	-1.332619e+00	-5.321012e-02	2.821294e-02	-1.060101e+00	5.620518e-01	-7.495509e-01	 -1.874991e-01
1.385646e+01	-1.324645e+00	-1.862065e-01	9.843240e-02	-1.053780e+00	5.623052e-01	-7.498043e-01	 -1.874991e-01
1.398285e+01	-1.307824e+00	-3.186290e-01	1.673802e-01	-1.040568e+00	5.600703e-01	-7.475694e-01	 -1.874991e-01
1.411057e+01	-1.282137e+00	-4.503266e-01	2.343265e-01	-1.020709e+00	5.553995e-01	-7.428986e-01	 -1.874991e-01
1.424033e+01	-1.247516e+00	-5.811359e-01	2.985890e-01	-9.945297e-01	5.483782e-01	-7.358774e-01	 -1.874992e-01
1.437286e+01	-1.203847e+00	-7.108740e-01	3.595442e-01	-9.624326e-01	5.391223e-01	-7.266215e-01	 -1.874992e-01
1.450894e+01	-1.150971e+00	-8.393321e-01	4.166364e-01	-9.248851e-01	5.277743e-01	-7.152735e-01	 -1.874992e-01
1.464937e+01	-1.088686e+00	-9.662676e-01	4.693840e-01	-8.824053e-01	5.144992e-01	-7.019984e-01	 -1.874992e-01
1.479501e+01	-1.016747e+00	-1.091397e+00	5.173833e-01	-8.355494e-01	4.994803e-01	-6.869795e-01	 -1.874993e-01
1.494679e+01	-9.348723e-01	-1.214387e+00	5.603097e-01	-7.848984e-01	4.829141e-01	-6.704134e-01	 -1.874993e-01
1.510571e+01	-8.427454e-01	-1.334846e+00	5.979171e-01	-7.310456e-01	4.650062e-01	-6.525055e-01	 -1.874993e-01
1.527286e+01	-7.400173e-01	-1.452313e+00	6.300346e-01	-6.745854e-01	4.459663e-01	-6.334657e-01	 -1.874994e-01
1.544945e+01	-6.263138e-01	-1.566250e+00	6.565616e-01	-6.161019e-01	4.260045e-01	-6.135039e-01	 -1.874994e-01
1.563680e+01	-5.012412e-01	-1.676023e+00	6.774620e-01	-5.561612e-01	4.053274e-01	-5.928268e-01	 -1.874994e-01
1.583638e+01	-3.643953e-01	-1.780895e+00	6.927564e-01	-4.953029e-01	3.841350e-01	-5.716344e-01	 -1.874994e-01
1.604983e+01	-2.153725e-01	-1.880008e+00	7.025146e-01	-4.340353e-01	3.626182e-01	-5.501177e-01	 -1.874995e-01
1.627899e+01	-5.378414e-02	-1.972366e+00	7.068467e-01	-3.728307e-01	3.409567e-01	-5.284562e-01	 -1.874995e-01
1.652589e+01	1.207249e-01	-2.056814e+00	7.058946e-01	-3.121233e-01	3.193175e-01	-5.068170e-01	 -1.874995e-01
1.679284e+01	3.084522e-01	-2.132020e+00	6.998234e-01	-2.523083e-01	2.978541e-01	-4.853536e-01	 -1.874995e-01
1.708241e+01	5.096062e-01	-2.196452e+00	6.888131e-01	-1.937423e-01	2.767062e-01	-4.642057e-01	 -1.874996e-01
1.739753e+01	7.242662e-01	-2.248349e+00	6.730504e-01	-1.367448e-01	2.559998e-01	-4.434994e-01	 -1.874996e-01
1.774146e+01	9.523299e-01	-2.285699e+00	6.527212e-01	-8.160191e-02	2.358480e-01	-4.233477e-01	 -1.874997e-01
1.811789e+01	1.193445e+00	-2.306212e+00	6.280034e-01	-2.857019e-02	2.163519e-01	-4.038517e-01	 -1.874997e-01
1.853095e+01	1.446919e+00	-2.307296e+00	5.990604e-01	2.211779e-02	1.976023e-01	-3.851020e-01	 -1.874998e-01
1.898526e+01	1.711609e+00	-2.286038e+00	5.660350e-01	7.024652e-02	1.796813e-01	-3.671811e-01	 -1.874998e-01
1.948595e+01	1.985766e+00	-2.239205e+00	5.290447e-01	1.156092e-01	1.626651e-01	-3.501650e-01	 -1.874999e-01
2.003862e+01	2.266850e+00	-2.163261e+00	4.881777e-01	1.579973e-01	1.466269e-01	-3.341268e-01	 -1.874999e-01
2.064929e+01	2.551288e+00	-2.054441e+00	4.434915e-01	1.971886e-01	1.316403e-01	-3.191403e-01	 -1.875000e-01
2.132419e+01	2.834182e+00	-1.908895e+00	3.950153e-01	2.329312e-01	1.177840e-01	-3.052841e-01	 -1.875000e-01
2.206934e+01	3.108973e+00	-1.722968e+00	3.427590e-01	2.649265e-01	1.051470e-01	-2.926471e-01	 -1.875001e-01
2.288984e+01	3.367117e+00	-1.493681e+00	2.867339e-01	2.928093e-01	9.383492e-02	-2.813351e-01	 -1.875002e-01
2.378866e+01	3.597871e+00	-1.219504e+00	2.269919e-01	3.161298e-01	8.397682e-02	-2.714771e-01	 -1.875002e-01
2.476479e+01	3.788432e+00	-9.014756e-01	1.636907e-01	3.343465e-01	7.573171e-02	-2.632320e-01	 -1.875003e-01
2.581087e+01	3.924783e+00	-5.445924e-01	9.718659e-02	3.468433e-01	6.929111e-02	-2.567915e-01	 -1.875004e-01
2.691091e+01	3.993659e+00	-1.590355e-01	2.813737e-02	3.529938e-01	6.487276e-02	-2.523732e-01	 -1.875004e-01
2.803960e+01	3.985594e+00	2.396428e-01	-4.243868e-02	3.522791e-01	6.269818e-02	-2.501986e-01	 -1.875005e-01
2.916488e+01	3.898085e+00	6.323248e-01	-1.132219e-01	3.444302e-01	6.295080e-02	-2.504513e-01	 -1.875005e-01
3.025408e+01	3.736999e+00	1.000050e+00	-1.827944e-01	3.295179e-01	6.572570e-02	-2.532262e-01	 -1.875005e-01
3.128069e+01	3.515049e+00	1.327931e+00	-2.498954e-01	3.079239e-01	7.099791e-02	-2.584984e-01	 -1.875005e-01
3.222820e+01	3.248245e+00	1.607220e+00	-3.135864e-01	2.802157e-01	7.863242e-02	-2.661329e-01	 -1.875004e-01
3.308997e+01	2.952419e+00	1.835006e+00	-3.732643e-01	2.470073e-01	8.842862e-02	-2.759290e-01	 -1.875004e-01
3.386662e+01	2.641139e+00	2.012601e+00	-4.285782e-01	2.088698e-01	1.001694e-01	-2.876698e-01	 -1.875003e-01
3.456310e+01	2.325028e+00	2.143767e+00	-4.793252e-01	1.662989e-01	1.136530e-01	-3.011532e-01	 -1.875003e-01
3.518643e+01	2.011917e+00	2.233378e+00	-5.253688e-01	1.197187e-01	1.287040e-01	-3.162042e-01	 -1.875002e-01
3.574429e+01	1.707321e+00	2.286577e+00	-5.665895e-01	6.950115e-02	1.451725e-01	-3.326726e-01	 -1.875001e-01
3.624420e+01	1.414968e+00	2.308318e+00	-6.028579e-01	1.598844e-02	1.629270e-01	-3.504271e-01	 -1.875001e-01
3.669315e+01	1.137248e+00	2.303149e+00	-6.340253e-01	-4.048661e-02	1.818466e-01	-3.693467e-01	 -1.875000e-01
3.709746e+01	8.755822e-01	2.275121e+00	-6.599230e-01	-9.958383e-02	2.018136e-01	-3.893136e-01	 -1.875000e-01
3.746273e+01	6.306916e-01	2.227790e+00	-6.803677e-01	-1.609426e-01	2.227077e-01	-4.102076e-01	 -1.874999e-01
3.779389e+01	4.028054e-01	2.164235e+00	-6.951689e-01	-2.241720e-01	2.444013e-01	-4.319012e-01	 -1.874999e-01
3.809528e+01	1.918097e-01	2.087107e+00	-7.041394e-01	-2.888444e-01	2.667564e-01	-4.542563e-01	 -1.874998e-01
3.837067e+01	-2.641965e-03	1.998674e+00	-7.071061e-01	-3.544912e-01	2.896217e-01	-4.771215e-01	 -1.874998e-01
3.862335e+01	-1.810481e-01	1.900869e+00	-7.039210e-01	-4.206017e-01	3.128315e-01	-5.003313e-01	 -1.874998e-01
3.885621e+01	-3.440005e-01	1.795335e+00	-6.944732e-01	-4.866235e-01	3.362053e-01	-5.237050e-01	 -1.874998e-01
3.907178e+01	-4.921408e-01	1.683463e+00	-6.786995e-01	-5.519671e-01	3.595477e-01	-5.470475e-01	 -1.874998e-01
3.927227e+01	-6.261294e-01	1.566426e+00	-6.565955e-01	-6.160107e-01	3.826504e-01	-5.701501e-01	 -1.874997e-01
3.945964e+01	-7.466228e-01	1.445215e+00	-6.282242e-01	-6.781090e-01	4.052934e-01	-5.927932e-01	 -1.874997e-01
3.963561e+01	-8.542569e-01	1.320661e+00	-5.937243e-01	-7.376029e-01	4.272488e-01	-6.147485e-01	 -1.874997e-01
3.980172e+01	-9.496359e-01	1.193460e+00	-5.533156e-01	-7.938316e-01	4.482833e-01	-6.357830e-01	 -1.874997e-01
3.995934e+01	-1.033323e+00	1.064193e+00	-5.073030e-01	-8.461459e-01	4.681634e-01	-6.556631e-01	 -1.874997e-01
4.010969e+01	-1.105838e+00	9.333480e-01	-4.560766e-01	-8.939221e-01	4.866596e-01	-6.741592e-01	 -1.874997e-01
4.025389e+01	-1.167647e+00	8.013280e-01	-4.001105e-01	-9.365769e-01	5.035513e-01	-6.910510e-01	 -1.874996e-01
4.039294e+01	-1.219168e+00	6.684709e-01	-3.399575e-01	-9.735810e-01	5.186323e-01	-7.061319e-01	 -1.874996e-01
4.052777e+01	-1.260766e+00	5.350592e-01	-2.762415e-01	-1.004473e+00	5.317155e-01	-7.192151e-01	 -1.874996e-01
4.065924e+01	-1.292750e+00	4.013308e-01	-2.096474e-01	-1.028871e+00	5.426378e-01	-7.301374e-01	 -1.874996e-01
4.078815e+01	-1.315377e+00	2.674890e-01	-1.409079e-01	-1.046483e+00	5.512641e-01	-7.387637e-01	 -1.874996e-01
4.091527e+01	-1.328851e+00	1.337107e-01	-7.079026e-02	-1.057113e+00	5.574910e-01	-7.449906e-01	 -1.874996e-01
4.104133e+01	-1.333324e+00	1.548854e-04	-7.964899e-05	-1.060665e+00	5.612494e-01	-7.487490e-01	 -1.874996e-01
4.116703e+01	-1.328896e+00	-1.330301e-01	7.043614e-02	-1.057149e+00	5.625056e-01	-7.500052e-01	 -1.874996e-01
4.129309e+01	-1.315615e+00	-2.656996e-01	1.399829e-01	-1.046672e+00	5.612625e-01	-7.487621e-01	 -1.874996e-01
4.142019e+01	-1.293483e+00	-3.977057e-01	2.078154e-01	-1.029439e+00	5.575583e-01	-7.450579e-01	 -1.874996e-01
4.154905e+01	-1.262449e+00	-5.288909e-01	2.732306e-01	-1.005745e+00	5.514657e-01	-7.389654e-01	 -1.874996e-01
4.168038e+01	-1.222419e+00	-6.590808e-01	3.355804e-01	-9.759635e-01	5.430887e-01	-7.305883e-01	 -1.874997e-01
4.181494e+01	-1.173250e+00	-7.880779e-01	3.942811e-01	-9.405381e-01	5.325595e-01	-7.200592e-01	 -1.874997e-01
4.195353e+01	-1.114758e+00	-9.156539e-01	4.488208e-01	-8.999677e-01	5.200348e-01	-7.075345e-01	 -1.874997e-01
4.209698e+01	-1.046715e+00	-1.041543e+00	4.987642e-01	-8.547947e-01	5.056909e-01	-6.931907e-01	 -1.874997e-01
4.224618e+01	-9.688540e-01	-1.165432e+00	5.437551e-01	-8.055919e-01	4.897199e-01	-6.772196e-01	 -1.874998e-01
4.240211e+01	-8.808714e-01	-1.286955e+00	5.835164e-01	-7.529492e-01	4.723240e-01	-6.598238e-01	 -1.874998e-01
4.256583e+01	-7.824307e-01	-1.405679e+00	6.178473e-01	-6.974617e-01	4.537119e-01	-6.412118e-01	 -1.874998e-01
4.273849e+01	-6.731672e-01	-1.521099e+00	6.466199e-01	-6.397188e-01	4.340940e-01	-6.215939e-01	 -1.874999e-01
4.292136e+01	-5.526939e-01	-1.632620e+00	6.697731e-01	-5.802949e-01	4.136788e-01	-6.011787e-01	 -1.874999e-01
4.311586e+01	-4.206099e-01	-1.739550e+00	6.873058e-01	-5.197410e-01	3.926691e-01	-5.801690e-01	 -1.874999e-01
4.332355e+01	-2.765096e-01	-1.841079e+00	6.992689e-01	-4.585783e-01	3.712600e-01	-5.587599e-01	 -1.874999e-01
4.354619e+01	-1.199966e-01	-1.936269e+00	7.057575e-01	-3.972941e-01	3.496355e-01	-5.371355e-01	 -1.875000e-01
4.378572e+01	4.930041e-02	-2.024032e+00	7.069019e-01	-3.363380e-01	3.279682e-01	-5.154681e-01	 -1.875000e-01
4.404435e+01	2.317051e-01	-2.103110e+00	7.028588e-01	-2.761207e-01	3.064168e-01	-4.939168e-01	 -1.875000e-01
4.432454e+01	4.274660e-01	-2.172052e+00	6.938033e-01	-2.170143e-01	2.851266e-01	-4.726266e-01	 -1.875000e-01
4.462906e+01	6.367198e-01	-2.229193e+00	6.799204e-01	-1.593527e-01	2.642291e-01	-4.517292e-01	 -1.875001e-01
4.496103e+01	8.594438e-01	-2.272624e+00	6.613971e-01	-1.034350e-01	2.438425e-01	-4.313426e-01	 -1.875001e-01
4.532398e+01	1.095395e+00	-2.300171e+00	6.384154e-01	-4.952908e-02	2.240725e-01	-4.115726e-01	 -1.875002e-01
4.572185e+01	1.344030e+00	-2.309363e+00	6.111452e-01	2.123783e-03	2.050137e-01	-3.925139e-01	 -1.875002e-01
4.615906e+01	1.604402e+00	-2.297419e+00	5.797382e-01	5.130210e-02	1.867515e-01	-3.742517e-01	 -1.875003e-01
4.664053e+01	1.875024e+00	-2.261231e+00	5.443226e-01	9.779668e-02	1.693641e-01	-3.568644e-01	 -1.875003e-01
4.717169e+01	2.153699e+00	-2.197382e+00	5.049987e-01	1.414011e-01	1.529257e-01	-3.404260e-01	 -1.875004e-01
4.775840e+01	2.437300e+00	-2.102184e+00	4.618363e-01	1.819003e-01	1.375090e-01	-3.250094e-01	 -1.875004e-01
4.840684e+01	2.721497e+00	-1.971797e+00	4.148752e-01	2.190561e-01	1.231902e-01	-3.106907e-01	 -1.875005e-01
4.912317e+01	3.000438e+00	-1.802444e+00	3.641313e-01	2.525911e-01	1.100535e-01	-2.975541e-01	 -1.875006e-01
4.991299e+01	3.266409e+00	-1.590801e+00	3.096120e-01	2.821690e-01	9.819696e-02	-2.856976e-01	 -1.875006e-01
5.078031e+01	3.509558e+00	-1.334642e+00	2.513466e-01	3.073756e-01	8.773946e-02	-2.752402e-01	 -1.875007e-01
5.172595e+01	3.717852e+00	-1.033823e+00	1.894408e-01	3.277059e-01	7.882744e-02	-2.663282e-01	 -1.875008e-01
5.274542e+01	3.877596e+00	-6.915835e-01	1.241588e-01	3.425690e-01	7.163948e-02	-2.591403e-01	 -1.875008e-01
5.382639e+01	3.974908e+00	-3.159244e-01	5.602653e-02	3.513314e-01	6.638445e-02	-2.538853e-01	 -1.875009e-01
5.494718e+01	3.998393e+00	7.966251e-02	-1.408305e-02	3.534140e-01	6.328635e-02	-2.507873e-01	 -1.875009e-01
5.607787e+01	3.942449e+00	4.771254e-01	-8.495398e-02	3.484321e-01	6.254989e-02	-2.500508e-01	 -1.875010e-01
5.718518e+01	3.809607e+00	8.569280e-01	-1.551766e-01	3.363167e-01	6.431107e-02	-2.518120e-01	 -1.875010e-01
5.823941e+01	3.610196e+00	1.202168e+00	-2.233996e-01	3.173361e-01	6.859435e-02	-2.560953e-01	 -1.875010e-01
5.921989e+01	3.359373e+00	1.501556e+00	-2.885456e-01	2.920016e-01	7.530480e-02	-2.628057e-01	 -1.875009e-01
6.011625e+01	3.073382e+00	1.749995e+00	-3.498839e-01	2.609226e-01	8.426174e-02	-2.717626e-01	 -1.875009e-01
6.092656e+01	2.766846e+00	1.947331e+00	-4.069752e-01	2.246942e-01	9.524964e-02	-2.827505e-01	 -1.875008e-01
6.165436e+01	2.451582e+00	2.096536e+00	-4.595690e-01	1.838432e-01	1.080582e-01	-2.955589e-01	 -1.875008e-01
6.230606e+01	2.136490e+00	2.202164e+00	-5.075099e-01	1.388207e-01	1.225010e-01	-3.100017e-01	 -1.875007e-01
6.288921e+01	1.827950e+00	2.269326e+00	-5.506758e-01	9.001684e-02	1.384187e-01	-3.259194e-01	 -1.875006e-01
6.341144e+01	1.530344e+00	2.303088e+00	-5.889433e-01	3.778300e-02	1.556735e-01	-3.431740e-01	 -1.875006e-01
6.387999e+01	1.246549e+00	2.308176e+00	-6.221717e-01	-1.754644e-02	1.741409e-01	-3.616414e-01	 -1.875005e-01
6.430146e+01	9.783364e-01	2.288844e+00	-6.502002e-01	-7.563601e-02	1.937028e-01	-3.812032e-01	 -1.875005e-01
6.468172e+01	7.266797e-01	2.248844e+00	-6.728504e-01	-1.361346e-01	2.142406e-01	-4.017410e-01	 -1.875004e-01
6.502599e+01	4.919844e-01	2.191442e+00	-6.899334e-01	-1.986644e-01	2.356301e-01	-4.231305e-01	 -1.875004e-01
6.533882e+01	2.742585e-01	2.119454e+00	-7.012597e-01	-2.628132e-01	2.577378e-01	-4.452382e-01	 -1.875003e-01
6.562419e+01	7.323757e-02	2.035297e+00	-7.066491e-01	-3.281290e-01	2.804180e-01	-4.679183e-01	 -1.875003e-01
6.588559e+01	-1.115242e-01	1.941031e+00	-7.059421e-01	-3.941179e-01	3.035108e-01	-4.910111e-01	 -1.875003e-01
6.612606e+01	-2.805873e-01	1.838411e+00	-6.990116e-01	-4.602441e-01	3.268416e-01	-5.143419e-01	 -1.875003e-01
6.634827e+01	-4.345776e-01	1.728923e+00	-6.857742e-01	-5.259323e-01	3.502210e-01	-5.377212e-01	 -1.875002e-01
6.655454e+01	-5.741512e-01	1.613825e+00	-6.662005e-01	-5.905726e-01	3.734455e-01	-5.609457e-01	 -1.875002e-01
6.674695e+01	-6.999685e-01	1.494177e+00	-6.403257e-01	-6.535282e-01	3.962996e-01	-5.837998e-01	 -1.875002e-01
6.692729e+01	-8.126752e-01	1.370870e+00	-6.082572e-01	-7.141442e-01	4.185581e-01	-6.060583e-01	 -1.875002e-01
6.709717e+01	-9.128895e-01	1.244653e+00	-5.701819e-01	-7.717589e-01	4.399894e-01	-6.274896e-01	 -1.875002e-01
6.725803e+01	-1.001192e+00	1.116150e+00	-5.263703e-01	-8.257167e-01	4.603596e-01	-6.478597e-01	 -1.875002e-01
6.741116e+01	-1.078119e+00	9.858841e-01	-4.771785e-01	-8.753822e-01	4.794369e-01	-6.669371e-01	 -1.875002e-01
6.755769e+01	-1.144160e+00	8.542904e-01	-4.230476e-01	-9.201539e-01	4.969966e-01	-6.844968e-01	 -1.875001e-01
6.769868e+01	-1.199753e+00	7.217318e-01	-3.644994e-01	-9.594794e-01	5.128262e-01	-7.003263e-01	 -1.875001e-01
6.783509e+01	-1.245282e+00	5.885115e-01	-3.021305e-01	-9.928686e-01	5.267302e-01	-7.142303e-01	 -1.875001e-01
6.796781e+01	-1.281080e+00	4.548840e-01	-2.366028e-01	-1.019907e+00	5.385354e-01	-7.260355e-01	 -1.875001e-01
6.809765e+01	-1.307425e+00	3.210653e-01	-1.686315e-01	-1.040264e+00	5.480951e-01	-7.355952e-01	 -1.875001e-01
6.822540e+01	-1.324542e+00	1.872419e-01	-9.897185e-02	-1.053706e+00	5.552929e-01	-7.427930e-01	 -1.875001e-01
6.835180e+01	-1.332603e+00	5.357911e-02	-2.840370e-02	-1.060096e+00	5.600456e-01	-7.475456e-01	 -1.875001e-01
6.847756e+01	-1.331729e+00	-7.977136e-02	4.228420e-02	-1.059402e+00	5.623051e-01	-7.498052e-01	 -1.875001e-01
6.860339e+01	-1.321989e+00	-2.126642e-01	1.123104e-01	-1.051691e+00	5.620599e-01	-7.495600e-01	 -1.875001e-01
6.872999e+01	-1.303403e+00	-3.449538e-01	1.809162e-01	-1.037132e+00	5.593341e-01	-7.468342e-01	 -1.875001e-01
6.885806e+01	-1.275941e+00	-4.764870e-01	2.473802e-01	-1.015984e+00	5.541869e-01	-7.416870e-01	 -1.875001e-01
6.898831e+01	-1.239527e+00	-6.070972e-01	3.110310e-01	-9.885895e-01	5.467099e-01	-7.342100e-01	 -1.875001e-01
6.912149e+01	-1.194036e+00	-7.365968e-01	3.712581e-01	-9.553663e-01	5.370247e-01	-7.245249e-01	 -1.875001e-01
6.925836e+01	-1.139301e+00	-8.647708e-01	4.275201e-01	-9.167923e-01	5.252787e-01	-7.127788e-01	 -1.875002e-01
6.939976e+01	-1.075111e+00	-9.913693e-01	4.793506e-01	-8.733943e-01	5.116407e-01	-6.991409e-01	 -1.875002e-01
6.954655e+01	-1.001214e+00	-1.116099e+00	5.263617e-01	-8.257344e-01	4.962973e-01	-6.837975e-01	 -1.875002e-01
6.969966e+01	-9.173220e-01	-1.238617e+00	5.682447e-01	-7.743971e-01	4.794469e-01	-6.669472e-01	 -1.875003e-01
6.986013e+01	-8.231100e-01	-1.358517e+00	6.047687e-01	-7.199769e-01	4.612964e-01	-6.487967e-01	 -1.875003e-01
7.002906e+01	-7.182243e-01	-1.475325e+00	6.357772e-01	-6.630668e-01	4.420559e-01	-6.295563e-01	 -1.875003e-01
7.020769e+01	-6.022860e-01	-1.588484e+00	6.611831e-01	-6.042481e-01	4.219351e-01	-6.094354e-01	 -1.875003e-01
7.039735e+01	-4.748986e-01	-1.697341e+00	6.809622e-01	-5.440820e-01	4.011394e-01	-5.886398e-01	 -1.875004e-01
7.059956e+01	-3.356572e-01	-1.801136e+00	6.951456e-01	-4.831024e-01	3.798674e-01	-5.673678e-01	 -1.875004e-01
